# Export File Created with QBlade CE v2.0.9_beta windows on 07.09.2025 at 08:25:42
[Conditions_01: NREL_MIT_5MW_TLP]
Time [s]	NP Pitch Y_l [deg]
0.0000000e+00	0.0000000e+00
2.7489142e-02	5.5645232e-05
5.4978285e-02	2.0376084e-04
8.2467422e-02	4.3927549e-04
1.0995657e-01	7.5645349e-04
1.3744570e-01	1.1529460e-03
1.6493484e-01	1.6255708e-03
1.9242400e-01	2.1710568e-03
2.1991314e-01	2.7861879e-03
2.4740228e-01	3.4671584e-03
2.7489141e-01	4.2086663e-03
3.0238056e-01	5.0036977e-03
3.2986969e-01	5.8441255e-03
3.5735884e-01	6.7212251e-03
3.8484800e-01	7.6256609e-03
4.1233712e-01	8.5475761e-03
4.3982628e-01	9.4771506e-03
4.6731541e-01	1.0405130e-02
4.9480456e-01	1.1322846e-02
5.2229369e-01	1.2221995e-02
5.4978281e-01	1.3094700e-02
5.7727200e-01	1.3933828e-02
6.0476112e-01	1.4733137e-02
6.3225025e-01	1.5487147e-02
6.5973938e-01	1.6191211e-02
6.8722856e-01	1.6841872e-02
7.1471769e-01	1.7437210e-02
7.4220681e-01	1.7976837e-02
7.6969600e-01	1.8461781e-02
7.9718512e-01	1.8894607e-02
8.2467425e-01	1.9279595e-02
8.5216337e-01	1.9622579e-02
8.7965256e-01	1.9930422e-02
9.0714169e-01	2.0210458e-02
9.3463081e-01	2.0470290e-02
9.6211994e-01	2.0717856e-02
9.8960912e-01	2.0961521e-02
1.0170982e+00	2.1210114e-02
1.0445874e+00	2.1472802e-02
1.0720766e+00	2.1758771e-02
1.0995656e+00	2.2076650e-02
1.1270548e+00	2.2433907e-02
1.1545440e+00	2.2836469e-02
1.1820331e+00	2.3288749e-02
1.2095222e+00	2.3793874e-02
1.2370114e+00	2.4353931e-02
1.2645005e+00	2.4970092e-02
1.2919897e+00	2.5642648e-02
1.3194788e+00	2.6370935e-02
1.3469679e+00	2.7153239e-02
1.3744571e+00	2.7986733e-02
1.4019462e+00	2.8867519e-02
1.4294354e+00	2.9790703e-02
1.4569246e+00	3.0750513e-02
1.4844136e+00	3.1740360e-02
1.5119028e+00	3.2753017e-02
1.5393920e+00	3.3780783e-02
1.5668811e+00	3.4815621e-02
1.5943702e+00	3.5849381e-02
1.6218593e+00	3.6874037e-02
1.6493485e+00	3.7881967e-02
1.6768377e+00	3.8866181e-02
1.7043267e+00	3.9820325e-02
1.7318159e+00	4.0738564e-02
1.7593051e+00	4.1615538e-02
1.7867942e+00	4.2446617e-02
1.8142834e+00	4.3228250e-02
1.8417726e+00	4.3958265e-02
1.8692616e+00	4.4635847e-02
1.8967508e+00	4.5261268e-02
1.9242399e+00	4.5835525e-02
1.9517291e+00	4.6360109e-02
1.9792182e+00	4.6836983e-02
2.0067074e+00	4.7268637e-02
2.0341964e+00	4.7658131e-02
2.0616856e+00	4.8009075e-02
2.0891747e+00	4.8325531e-02
2.1166639e+00	4.8611842e-02
2.1441531e+00	4.8872478e-02
2.1716423e+00	4.9111869e-02
2.1991313e+00	4.9334303e-02
2.2266204e+00	4.9543865e-02
2.2541096e+00	4.9744435e-02
2.2815988e+00	4.9939666e-02
2.3090880e+00	5.0132915e-02
2.3365769e+00	5.0327126e-02
2.3640661e+00	5.0524648e-02
2.3915553e+00	5.0727129e-02
2.4190445e+00	5.0935496e-02
2.4465337e+00	5.1150005e-02
2.4740229e+00	5.1370349e-02
2.5015118e+00	5.1595710e-02
2.5290010e+00	5.1824722e-02
2.5564902e+00	5.2055374e-02
2.5839794e+00	5.2284840e-02
2.6114686e+00	5.2509502e-02
2.6389575e+00	5.2725192e-02
2.6664467e+00	5.2927636e-02
2.6939359e+00	5.3112864e-02
2.7214251e+00	5.3277448e-02
2.7489142e+00	5.3418532e-02
2.7764034e+00	5.3533860e-02
2.8038924e+00	5.3621750e-02
2.8313816e+00	5.3681117e-02
2.8588707e+00	5.3711362e-02
2.8863599e+00	5.3712215e-02
2.9138491e+00	5.3683624e-02
2.9413381e+00	5.3625774e-02
2.9688272e+00	5.3539217e-02
2.9963164e+00	5.3425081e-02
3.0238056e+00	5.3285137e-02
3.0512948e+00	5.3121828e-02
3.0787840e+00	5.2938130e-02
3.1062729e+00	5.2737370e-02
3.1337621e+00	5.2522954e-02
3.1612513e+00	5.2298114e-02
3.1887405e+00	5.2065693e-02
3.2162297e+00	5.1828042e-02
3.2437186e+00	5.1587023e-02
3.2712078e+00	5.1344085e-02
3.2986970e+00	5.1100470e-02
3.3261862e+00	5.0857466e-02
3.3536754e+00	5.0616682e-02
3.3811646e+00	5.0380155e-02
3.4086535e+00	5.0150223e-02
3.4361427e+00	4.9929190e-02
3.4636319e+00	4.9718909e-02
3.4911211e+00	4.9520433e-02
3.5186102e+00	4.9333863e-02
3.5460992e+00	4.9158365e-02
3.5735884e+00	4.8992414e-02
3.6010776e+00	4.8834085e-02
3.6285667e+00	4.8681337e-02
3.6560559e+00	4.8532054e-02
3.6835451e+00	4.8383925e-02
3.7110341e+00	4.8234213e-02
3.7385232e+00	4.8079628e-02
3.7660124e+00	4.7916386e-02
3.7935016e+00	4.7740396e-02
3.8209908e+00	4.7547583e-02
3.8484797e+00	4.7334187e-02
3.8759689e+00	4.7097079e-02
3.9034581e+00	4.6833932e-02
3.9309473e+00	4.6543323e-02
3.9584365e+00	4.6224650e-02
3.9859257e+00	4.5878023e-02
4.0134149e+00	4.5504209e-02
4.0409040e+00	4.5104656e-02
4.0683928e+00	4.4681542e-02
4.0958819e+00	4.4237778e-02
4.1233711e+00	4.3776914e-02
4.1508603e+00	4.3302990e-02
4.1783495e+00	4.2820316e-02
4.2058387e+00	4.2333253e-02
4.2333279e+00	4.1845933e-02
4.2608171e+00	4.1361988e-02
4.2883062e+00	4.0884316e-02
4.3157954e+00	4.0414952e-02
4.3432846e+00	3.9955121e-02
4.3707733e+00	3.9505392e-02
4.3982625e+00	3.9065942e-02
4.4257517e+00	3.8636684e-02
4.4532409e+00	3.8217310e-02
4.4807301e+00	3.7807174e-02
4.5082192e+00	3.7405174e-02
4.5357084e+00	3.7009735e-02
4.5631976e+00	3.6619015e-02
4.5906868e+00	3.6231212e-02
4.6181760e+00	3.5844818e-02
4.6456652e+00	3.5458758e-02
4.6731539e+00	3.5072409e-02
4.7006431e+00	3.4685522e-02
4.7281322e+00	3.4298088e-02
4.7556214e+00	3.3910215e-02
4.7831106e+00	3.3521928e-02
4.8105998e+00	3.3133078e-02
4.8380890e+00	3.2743283e-02
4.8655782e+00	3.2351997e-02
4.8930674e+00	3.1958666e-02
4.9205565e+00	3.1562909e-02
4.9480457e+00	3.1164698e-02
4.9755344e+00	3.0764297e-02
5.0030236e+00	3.0362112e-02
5.0305128e+00	2.9958468e-02
5.0580020e+00	2.9553425e-02
5.0854912e+00	2.9146764e-02
5.1129804e+00	2.8738068e-02
5.1404696e+00	2.8326923e-02
5.1679587e+00	2.7913177e-02
5.1954479e+00	2.7497150e-02
5.2229371e+00	2.7079847e-02
5.2504263e+00	2.6663106e-02
5.2779150e+00	2.6249580e-02
5.3054042e+00	2.5842544e-02
5.3328934e+00	2.5445517e-02
5.3603826e+00	2.5061835e-02
5.3878717e+00	2.4694318e-02
5.4153609e+00	2.4345154e-02
5.4428501e+00	2.4015924e-02
5.4703393e+00	2.3707656e-02
5.4978285e+00	2.3420813e-02
5.5253177e+00	2.3155171e-02
5.5528069e+00	2.2909718e-02
5.5802956e+00	2.2682574e-02
5.6077847e+00	2.2471052e-02
5.6352739e+00	2.2271771e-02
5.6627631e+00	2.2080855e-02
5.6902523e+00	2.1894166e-02
5.7177415e+00	2.1707533e-02
5.7452307e+00	2.1516953e-02
5.7727199e+00	2.1318683e-02
5.8002090e+00	2.1109214e-02
5.8276982e+00	2.0885104e-02
5.8551874e+00	2.0642800e-02
5.8826761e+00	2.0378567e-02
5.9101653e+00	2.0088609e-02
5.9376545e+00	1.9769294e-02
5.9651437e+00	1.9417370e-02
5.9926329e+00	1.9030089e-02
6.0201221e+00	1.8605201e-02
6.0476112e+00	1.8140892e-02
6.0751004e+00	1.7635787e-02
6.1025896e+00	1.7089080e-02
6.1300788e+00	1.6500767e-02
6.1575680e+00	1.5871840e-02
6.1850567e+00	1.5204286e-02
6.2125459e+00	1.4501012e-02
6.2400351e+00	1.3765729e-02
6.2675242e+00	1.3002899e-02
6.2950134e+00	1.2217703e-02
6.3225026e+00	1.1416000e-02
6.3499918e+00	1.0604226e-02
6.3774810e+00	9.7892862e-03
6.4049702e+00	8.9783752e-03
6.4324594e+00	8.1787426e-03
6.4599485e+00	7.3974216e-03
6.4874372e+00	6.6409563e-03
6.5149264e+00	5.9151491e-03
6.5424156e+00	5.2248347e-03
6.5699048e+00	4.5737433e-03
6.5973940e+00	3.9645378e-03
6.6248832e+00	3.3990408e-03
6.6523724e+00	2.8785302e-03
6.6798615e+00	2.4039284e-03
6.7073507e+00	1.9757580e-03
6.7348399e+00	1.5939180e-03
6.7623291e+00	1.2574523e-03
6.7898178e+00	9.6450333e-04
6.8173070e+00	7.1250944e-04
6.8447962e+00	4.9853692e-04
6.8722854e+00	3.1952781e-04
6.8997746e+00	1.7230042e-04
6.9272637e+00	5.3324435e-05
6.9547529e+00	-4.1542768e-05
6.9822421e+00	-1.1715466e-04
7.0097313e+00	-1.7893429e-04
7.0372205e+00	-2.3257706e-04
7.0647097e+00	-2.8375370e-04
7.0921984e+00	-3.3793453e-04
7.1196876e+00	-4.0036833e-04
7.1471767e+00	-4.7614728e-04
7.1746659e+00	-5.7022483e-04
7.2021551e+00	-6.8727328e-04
7.2296443e+00	-8.3135482e-04
7.2571335e+00	-1.0054884e-03
7.2846227e+00	-1.2112606e-03
7.3121119e+00	-1.4486016e-03
7.3396010e+00	-1.7157653e-03
7.3670902e+00	-2.0094537e-03
7.3945789e+00	-2.3250065e-03
7.4220681e+00	-2.6566368e-03
7.4495573e+00	-2.9977418e-03
7.4770465e+00	-3.3413151e-03
7.5045357e+00	-3.6803910e-03
7.5320249e+00	-4.0084128e-03
7.5595140e+00	-4.3194322e-03
7.5870032e+00	-4.6081054e-03
7.6144924e+00	-4.8695216e-03
7.6419816e+00	-5.0989687e-03
7.6694708e+00	-5.2917721e-03
7.6969595e+00	-5.4433304e-03
7.7244487e+00	-5.5493466e-03
7.7519379e+00	-5.6061167e-03
7.7794271e+00	-5.6107282e-03
7.8069162e+00	-5.5611082e-03
7.8344054e+00	-5.4559521e-03
7.8618946e+00	-5.2945921e-03
7.8893838e+00	-5.0768657e-03
7.9168730e+00	-4.8030214e-03
7.9443622e+00	-4.4737333e-03
7.9718513e+00	-4.0902263e-03
7.9993401e+00	-3.6544723e-03
8.0268297e+00	-3.1693382e-03
8.0543184e+00	-2.6386436e-03
8.0818081e+00	-2.0671105e-03
8.1092968e+00	-1.4602329e-03
8.1367855e+00	-8.2407345e-04
8.1642752e+00	-1.6501585e-04
8.1917639e+00	5.1048771e-04
8.2192535e+00	1.1961447e-03
8.2467422e+00	1.8860173e-03
8.2742319e+00	2.5746718e-03
8.3017206e+00	3.2572488e-03
8.3292103e+00	3.9294395e-03
8.3566990e+00	4.5874119e-03
8.3841887e+00	5.2277539e-03
8.4116774e+00	5.8474634e-03
8.4391661e+00	6.4439806e-03
8.4666557e+00	7.0152711e-03
8.4941444e+00	7.5599598e-03
8.5216341e+00	8.0775339e-03
8.5491228e+00	8.5685309e-03
8.5766125e+00	9.0345498e-03
8.6041012e+00	9.4781714e-03
8.6315908e+00	9.9028284e-03
8.6590796e+00	1.0312720e-02
8.6865692e+00	1.0712776e-02
8.7140579e+00	1.1108611e-02
8.7415466e+00	1.1506410e-02
8.7690363e+00	1.1912713e-02
8.7965250e+00	1.2334118e-02
8.8240147e+00	1.2776967e-02
8.8515034e+00	1.3247050e-02
8.8789930e+00	1.3749317e-02
8.9064817e+00	1.4287590e-02
8.9339714e+00	1.4864336e-02
8.9614601e+00	1.5480585e-02
8.9889498e+00	1.6136065e-02
9.0164385e+00	1.6829431e-02
9.0439272e+00	1.7558480e-02
9.0714169e+00	1.8320214e-02
9.0989056e+00	1.9110758e-02
9.1263952e+00	1.9925196e-02
9.1538839e+00	2.0757413e-02
9.1813736e+00	2.1600079e-02
9.2088623e+00	2.2444811e-02
9.2363520e+00	2.3282509e-02
9.2638407e+00	2.4103738e-02
9.2913303e+00	2.4899052e-02
9.3188190e+00	2.5659202e-02
9.3463078e+00	2.6375337e-02
9.3737974e+00	2.7039217e-02
9.4012861e+00	2.7643410e-02
9.4287758e+00	2.8181467e-02
9.4562645e+00	2.8647991e-02
9.4837542e+00	2.9038692e-02
9.5112429e+00	2.9350471e-02
9.5387325e+00	2.9581610e-02
9.5662212e+00	2.9732013e-02
9.5937109e+00	2.9803405e-02
9.6211996e+00	2.9799325e-02
9.6486883e+00	2.9724946e-02
9.6761780e+00	2.9586749e-02
9.7036667e+00	2.9392147e-02
9.7311563e+00	2.9149227e-02
9.7586451e+00	2.8866490e-02
9.7861347e+00	2.8552752e-02
9.8136234e+00	2.8216995e-02
9.8411131e+00	2.7868312e-02
9.8686018e+00	2.7515788e-02
9.8960915e+00	2.7168393e-02
9.9235802e+00	2.6834862e-02
9.9510689e+00	2.6523484e-02
9.9785585e+00	2.6241770e-02
1.0006047e+01	2.5996098e-02
1.0033537e+01	2.5791407e-02
1.0061026e+01	2.5631029e-02
1.0088515e+01	2.5516709e-02
1.0116004e+01	2.5448699e-02
1.0143494e+01	2.5425896e-02
1.0170982e+01	2.5445994e-02
1.0198472e+01	2.5505539e-02
1.0225961e+01	2.5599906e-02
1.0253449e+01	2.5723185e-02
1.0280939e+01	2.5868123e-02
1.0308428e+01	2.6026180e-02
1.0335917e+01	2.6187820e-02
1.0363406e+01	2.6343022e-02
1.0390896e+01	2.6481885e-02
1.0418385e+01	2.6595268e-02
1.0445874e+01	2.6675239e-02
1.0473363e+01	2.6715297e-02
1.0500853e+01	2.6710324e-02
1.0528341e+01	2.6656313e-02
1.0555830e+01	2.6550092e-02
1.0583320e+01	2.6389195e-02
1.0610808e+01	2.6172008e-02
1.0638298e+01	2.5898019e-02
1.0665787e+01	2.5568055e-02
1.0693276e+01	2.5184380e-02
1.0720765e+01	2.4750667e-02
1.0748255e+01	2.4271883e-02
1.0775743e+01	2.3754187e-02
1.0803233e+01	2.3204781e-02
1.0830722e+01	2.2631722e-02
1.0858211e+01	2.2043668e-02
1.0885700e+01	2.1449547e-02
1.0913189e+01	2.0858321e-02
1.0940679e+01	2.0278843e-02
1.0968167e+01	1.9719884e-02
1.0995657e+01	1.9190159e-02
1.1023146e+01	1.8698273e-02
1.1050635e+01	1.8252475e-02
1.1078124e+01	1.7860290e-02
1.1105614e+01	1.7528169e-02
1.1133102e+01	1.7261263e-02
1.1160591e+01	1.7063370e-02
1.1188081e+01	1.6937014e-02
1.1215569e+01	1.6883509e-02
1.1243059e+01	1.6903019e-02
1.1270548e+01	1.6994538e-02
1.1298038e+01	1.7155834e-02
1.1325526e+01	1.7383384e-02
1.1353016e+01	1.7672408e-02
1.1380505e+01	1.8016998e-02
1.1407994e+01	1.8410373e-02
1.1435483e+01	1.8845113e-02
1.1462972e+01	1.9313391e-02
1.1490461e+01	1.9807175e-02
1.1517950e+01	2.0318450e-02
1.1545440e+01	2.0839475e-02
1.1572928e+01	2.1363044e-02
1.1600418e+01	2.1882715e-02
1.1627907e+01	2.2392945e-02
1.1655396e+01	2.2889135e-02
1.1682885e+01	2.3367573e-02
1.1710375e+01	2.3825381e-02
1.1737864e+01	2.4260439e-02
1.1765352e+01	2.4671376e-02
1.1792842e+01	2.5057640e-02
1.1820331e+01	2.5419654e-02
1.1847820e+01	2.5758965e-02
1.1875309e+01	2.6078232e-02
1.1902799e+01	2.6381020e-02
1.1930287e+01	2.6671389e-02
1.1957777e+01	2.6953485e-02
1.1985266e+01	2.7231153e-02
1.2012755e+01	2.7507704e-02
1.2040244e+01	2.7785853e-02
1.2067733e+01	2.8067855e-02
1.2095222e+01	2.8355693e-02
1.2122711e+01	2.8651247e-02
1.2150201e+01	2.8956350e-02
1.2177690e+01	2.9272793e-02
1.2205179e+01	2.9602267e-02
1.2232668e+01	2.9946227e-02
1.2260158e+01	3.0305726e-02
1.2287646e+01	3.0681156e-02
1.2315136e+01	3.1072062e-02
1.2342625e+01	3.1477109e-02
1.2370113e+01	3.1894270e-02
1.2397603e+01	3.2321118e-02
1.2425092e+01	3.2755159e-02
1.2452581e+01	3.3193883e-02
1.2480070e+01	3.3634663e-02
1.2507560e+01	3.4074593e-02
1.2535048e+01	3.4510460e-02
1.2562538e+01	3.4938838e-02
1.2590027e+01	3.5356224e-02
1.2617517e+01	3.5759069e-02
1.2645005e+01	3.6143865e-02
1.2672494e+01	3.6507394e-02
1.2699984e+01	3.6847103e-02
1.2727472e+01	3.7161466e-02
1.2754962e+01	3.7450105e-02
1.2782451e+01	3.7713744e-02
1.2809940e+01	3.7954070e-02
1.2837429e+01	3.8173642e-02
1.2864919e+01	3.8375732e-02
1.2892407e+01	3.8564075e-02
1.2919897e+01	3.8742527e-02
1.2947386e+01	3.8914714e-02
1.2974874e+01	3.9083820e-02
1.3002364e+01	3.9252616e-02
1.3029853e+01	3.9423626e-02
1.3057343e+01	3.9599374e-02
1.3084831e+01	3.9782465e-02
1.3112321e+01	3.9975461e-02
1.3139810e+01	4.0180489e-02
1.3167299e+01	4.0398780e-02
1.3194788e+01	4.0630326e-02
1.3222278e+01	4.0873874e-02
1.3249766e+01	4.1127119e-02
1.3277255e+01	4.1387096e-02
1.3304745e+01	4.1650523e-02
1.3332233e+01	4.1914180e-02
1.3359723e+01	4.2175222e-02
1.3387212e+01	4.2431425e-02
1.3414701e+01	4.2681240e-02
1.3442190e+01	4.2923607e-02
1.3469680e+01	4.3157592e-02
1.3497169e+01	4.3381948e-02
1.3524658e+01	4.3594845e-02
1.3552147e+01	4.3793827e-02
1.3579636e+01	4.3976210e-02
1.3607125e+01	4.4139519e-02
1.3634614e+01	4.4281922e-02
1.3662104e+01	4.4402353e-02
1.3689592e+01	4.4500470e-02
1.3717082e+01	4.4576485e-02
1.3744571e+01	4.4630986e-02
1.3772060e+01	4.4664785e-02
1.3799549e+01	4.4678859e-02
1.3827039e+01	4.4674344e-02
1.3854527e+01	4.4652697e-02
1.3882016e+01	4.4615969e-02
1.3909506e+01	4.4567153e-02
1.3936995e+01	4.4510331e-02
1.3964484e+01	4.4450518e-02
1.3991973e+01	4.4393215e-02
1.4019463e+01	4.4343878e-02
1.4046951e+01	4.4307519e-02
1.4074441e+01	4.4288594e-02
1.4101930e+01	4.4291057e-02
1.4129419e+01	4.4318374e-02
1.4156908e+01	4.4373516e-02
1.4184397e+01	4.4458810e-02
1.4211886e+01	4.4575769e-02
1.4239375e+01	4.4724997e-02
1.4266865e+01	4.4906214e-02
1.4294353e+01	4.5118410e-02
1.4321843e+01	4.5360051e-02
1.4349332e+01	4.5629282e-02
1.4376822e+01	4.5924056e-02
1.4404310e+01	4.6242200e-02
1.4431800e+01	4.6581395e-02
1.4459289e+01	4.6939217e-02
1.4486777e+01	4.7313172e-02
1.4514267e+01	4.7700774e-02
1.4541756e+01	4.8099581e-02
1.4569245e+01	4.8507150e-02
1.4596734e+01	4.8920903e-02
1.4624224e+01	4.9338002e-02
1.4651712e+01	4.9755279e-02
1.4679202e+01	5.0169222e-02
1.4706691e+01	5.0575942e-02
1.4734180e+01	5.0971258e-02
1.4761669e+01	5.1350735e-02
1.4789158e+01	5.1709883e-02
1.4816648e+01	5.2044295e-02
1.4844136e+01	5.2349862e-02
1.4871626e+01	5.2622911e-02
1.4899115e+01	5.2860327e-02
1.4926604e+01	5.3059623e-02
1.4954093e+01	5.3218871e-02
1.4981583e+01	5.3336669e-02
1.5009071e+01	5.3412188e-02
1.5036561e+01	5.3445317e-02
1.5064050e+01	5.3436927e-02
1.5091538e+01	5.3388890e-02
1.5119028e+01	5.3303838e-02
1.5146517e+01	5.3184789e-02
1.5174006e+01	5.3034764e-02
1.5201495e+01	5.2856494e-02
1.5228985e+01	5.2652273e-02
1.5256474e+01	5.2423887e-02
1.5283963e+01	5.2172594e-02
1.5311452e+01	5.1899180e-02
1.5338942e+01	5.1604036e-02
1.5366430e+01	5.1287282e-02
1.5393919e+01	5.0948914e-02
1.5421409e+01	5.0588943e-02
1.5448897e+01	5.0207552e-02
1.5476387e+01	4.9805220e-02
1.5503876e+01	4.9382810e-02
1.5531365e+01	4.8941564e-02
1.5558854e+01	4.8483018e-02
1.5586344e+01	4.8008837e-02
1.5613832e+01	4.7520738e-02
1.5641322e+01	4.7020506e-02
1.5668811e+01	4.6510033e-02
1.5696300e+01	4.5991339e-02
1.5723789e+01	4.5466520e-02
1.5751278e+01	4.4937722e-02
1.5778768e+01	4.4407044e-02
1.5806256e+01	4.3876447e-02
1.5833746e+01	4.3347541e-02
1.5861235e+01	4.2821355e-02
1.5888724e+01	4.2298131e-02
1.5916213e+01	4.1777357e-02
1.5943703e+01	4.1257970e-02
1.5971191e+01	4.0738799e-02
1.5998680e+01	4.0218942e-02
1.6026169e+01	3.9697919e-02
1.6053659e+01	3.9175529e-02
1.6081148e+01	3.8651634e-02
1.6108637e+01	3.8126089e-02
1.6136126e+01	3.7598804e-02
1.6163616e+01	3.7069779e-02
1.6191105e+01	3.6539000e-02
1.6218594e+01	3.6006372e-02
1.6246082e+01	3.5471804e-02
1.6273571e+01	3.4935430e-02
1.6301062e+01	3.4397822e-02
1.6328550e+01	3.3859998e-02
1.6356039e+01	3.3323206e-02
1.6383528e+01	3.2788660e-02
1.6411018e+01	3.2257363e-02
1.6438507e+01	3.1730119e-02
1.6465996e+01	3.1207722e-02
1.6493484e+01	3.0691138e-02
1.6520975e+01	3.0181549e-02
1.6548464e+01	2.9680237e-02
1.6575953e+01	2.9188396e-02
1.6603441e+01	2.8706972e-02
1.6630930e+01	2.8236669e-02
1.6658421e+01	2.7778115e-02
1.6685909e+01	2.7332058e-02
1.6713398e+01	2.6899589e-02
1.6740887e+01	2.6482288e-02
1.6768377e+01	2.6082320e-02
1.6795866e+01	2.5702458e-02
1.6823355e+01	2.5345992e-02
1.6850843e+01	2.5016526e-02
1.6878332e+01	2.4717754e-02
1.6905823e+01	2.4453241e-02
1.6933311e+01	2.4226302e-02
1.6960800e+01	2.4039937e-02
1.6988289e+01	2.3896819e-02
1.7015779e+01	2.3799304e-02
1.7043268e+01	2.3749370e-02
1.7070757e+01	2.3748470e-02
1.7098246e+01	2.3797385e-02
1.7125736e+01	2.3896145e-02
1.7153225e+01	2.4044167e-02
1.7180714e+01	2.4240514e-02
1.7208202e+01	2.4484221e-02
1.7235691e+01	2.4774484e-02
1.7263182e+01	2.5110707e-02
1.7290670e+01	2.5492383e-02
1.7318159e+01	2.5918983e-02
1.7345648e+01	2.6389839e-02
1.7373138e+01	2.6904123e-02
1.7400627e+01	2.7460810e-02
1.7428116e+01	2.8058637e-02
1.7455605e+01	2.8696032e-02
1.7483093e+01	2.9371094e-02
1.7510584e+01	3.0081624e-02
1.7538073e+01	3.0825227e-02
1.7565561e+01	3.1599335e-02
1.7593050e+01	3.2401133e-02
1.7620541e+01	3.3227395e-02
1.7648029e+01	3.4074370e-02
1.7675518e+01	3.4937743e-02
1.7703007e+01	3.5812743e-02
1.7730497e+01	3.6694236e-02
1.7757986e+01	3.7576973e-02
1.7785475e+01	3.8455784e-02
1.7812963e+01	3.9325796e-02
1.7840452e+01	4.0182546e-02
1.7867943e+01	4.1021936e-02
1.7895432e+01	4.1840166e-02
1.7922920e+01	4.2633679e-02
1.7950409e+01	4.3399170e-02
1.7977900e+01	4.4133630e-02
1.8005388e+01	4.4834379e-02
1.8032877e+01	4.5499023e-02
1.8060366e+01	4.6125427e-02
1.8087854e+01	4.6711732e-02
1.8115345e+01	4.7256429e-02
1.8142834e+01	4.7758568e-02
1.8170322e+01	4.8217922e-02
1.8197811e+01	4.8635118e-02
1.8225302e+01	4.9011525e-02
1.8252790e+01	4.9349032e-02
1.8280279e+01	4.9649760e-02
1.8307768e+01	4.9915776e-02
1.8335258e+01	5.0149061e-02
1.8362747e+01	5.0351493e-02
1.8390236e+01	5.0525006e-02
1.8417725e+01	5.0671652e-02
1.8445213e+01	5.0793655e-02
1.8472704e+01	5.0893366e-02
1.8500193e+01	5.0973304e-02
1.8527681e+01	5.1036220e-02
1.8555170e+01	5.1085182e-02
1.8582661e+01	5.1123500e-02
1.8610149e+01	5.1154446e-02
1.8637638e+01	5.1180989e-02
1.8665127e+01	5.1205646e-02
1.8692616e+01	5.1230639e-02
1.8720106e+01	5.1258061e-02
1.8747595e+01	5.1289912e-02
